LIST170427A-t15076-5K-35Deg.txt**Raman_Information**
Laser 633 nm
Power 10 perc
Grating 2400 cm-1
Objectif 100 x
Time 60 s
N._Acqu. 30 x
**Sample_Information**
Sample_ID t15076
Sample NdNiO3
Substr NdGaO3
Sam._Inf. 30nm
Sub._Inf. 111
Dist               0.0        1.0        2.0        3.0        4.0        5.0        6.0        7.0        8.0        9.0       10.0       11.0       12.0       13.0       14.0       15.0       16.0       17.0       18.0       19.0       20.0       21.0       22.0       23.0       24.0       25.0       26.0       27.0       28.0       29.0 
       0.0 18689.2886 15255.6472  5589.6822  5160.9046   2192.895 29311.8869 30244.5785        0.0  2358.3384 44955.4186   389.4068  1197.9651  8591.5999 11994.9697   347.5702  8164.6664  3806.3424  1297.7831 27252.0277   8287.331   638.8468   1108.257 10364.3008  2779.3703  1326.1367        0.0  2842.9149        0.0 14987.5816        0.0 
       1.0 25338.9459 14829.9454  5769.7354  4568.3429  1851.4937 24308.2387 25796.8495   102.6529  2120.4889 36860.1557   292.8759   1178.991  7523.1434 10013.3725   319.5782  6765.3412  3275.6572   1043.155 22428.2931  7137.0561   393.8171  1023.6994 29314.6688  2280.2046  1034.1356        0.0  2336.9666        0.0 11794.8452        0.0 
       2.0 10387.7675 21875.1747  3319.5285  5571.2513  2186.5081 31040.6653 34823.8506        0.0  2221.5079 40373.8652   320.9041   781.3353  8716.8591 12461.4599    280.133  8527.3256  3635.4994  1432.9873 28975.1787  8690.6421   902.8677   951.4048 27536.5376  3053.6082  1181.8986        0.0  2690.4691        0.0 17357.1482        0.0 
       3.0 10262.7753 21588.1212  3665.6694  4875.1253  2127.4925 29086.9609 35073.3642        0.0  2038.6427 38863.3047   573.4929  1115.6766   8267.453 11186.9913    474.192  7961.6536  3529.9682  1029.7362 26423.7662   8077.914   682.0677  1085.0323 27599.9141  2871.2394  1346.1293        0.0  2480.9133        0.0 16887.7363        0.0 
       4.0   9280.245 22659.6863  3153.5241  5749.4282  2169.4896  32218.929 35044.6767        0.0  1930.5546 45211.5707   284.1849   802.9466  9075.2246 11837.9444   346.4545   8877.239  3480.2525  1314.8792 29620.9186  8846.6161    973.913   746.3922 24395.8436  3280.6751  1180.4736    39.6174  2475.7318        0.0 16122.8386        0.0 
       5.0  9860.6818 22012.0494   3053.438  5443.8956  2021.2374 32009.4543 34341.1884        0.0  1733.1789 44138.4812   287.1633   729.4398   8650.604 10636.8363   352.7425  8912.4584  3337.5795  1325.7933 29403.7615  9052.4365   993.2463   655.5799 24656.0435  3048.0382  1099.9519   148.5419  2028.6143        0.0 15734.2346        0.0 
       6.0  6195.7164 15500.2736  3161.8888  4334.2309   1393.474 23804.9747 26070.8243        0.0  1984.6425 37408.3432   181.8967   941.9198  6342.6103  8043.5409   373.8291  6857.3393  3323.1469   981.6121 22960.2724  7287.0837   809.8871   821.0516 27580.4441  2407.1982    830.893   158.4384  1579.2023        0.0 14505.2727        0.0 
       7.0 14727.6599 21438.8598  5522.6963  5825.4296  2056.6937  33276.245 30977.2991    38.2801   1501.039 43681.3121   275.5934    821.864  8966.1645 11238.3363    454.282  9294.8165  3143.2288  1556.5349 30329.4355 10066.8381   993.1414   435.8852 37631.7756   3415.155  1134.5056   399.8125  2226.4109        0.0 23121.9795        0.0 
       8.0 19048.1546 20164.8695  2016.3205  4333.9288   1431.871 24701.4815 31068.1659   148.6433  1784.0746 31757.7433    226.035  1006.9369  6760.5416  8197.3736   621.8966   7691.453   3222.826   858.5053 25847.0552  7828.8121  1288.1847   634.2591  8122.6287   2775.623   845.2145   387.6051  1702.7172        0.0  9730.2481        0.0 
       9.0  6506.3878  7407.3136  1360.2425  2040.2042   430.5372 12039.3566  12784.549        0.0  1669.0687  7943.9462   153.1978  1010.1589  2419.5216  3747.9898    572.149  3153.5795  2397.5017   474.7804  9342.5467  3015.3887  1158.5787  1011.3934  2776.0863  1367.9598   385.9186    376.143   394.9967    95.4318  5524.4126        0.0 
      10.0  30897.592 18453.5218  2048.8391  4554.2613  1323.5586 22881.4298 28938.5617   112.2827  1920.1031  8979.6552   405.8325  1043.8508  5981.5516  7353.1832   692.7891  7156.5863  3260.0372  1232.0486  23529.933  7456.8944  1184.9606   788.8974 10457.5073  2467.3568   954.7775    338.934  1520.9349        0.0  5383.7208        0.0 
      11.0      200.0 17347.7454  4065.4301   3931.822  1133.0129 21096.6371 27896.6039   167.1983  1893.7921 35200.1395   314.5993   788.4594  5327.2508  6644.5729    575.828  6503.2466  3109.3234  1596.5587 22001.6665  6902.0363   727.1806    718.986  6763.6481  2335.9953   750.5114   175.1585  1233.4836        0.0  7027.0986        0.0 
      12.0        0.0 17338.8028  3796.7998  3919.8057  1106.0591 21172.4694  28161.398        0.0  1885.3876 35607.2505   230.3052   808.1837  5386.3573  6676.2187   604.3239  6478.0129  3191.9827  1343.8582 21885.8969  6911.8426   874.0058   722.9124  6778.7464  2366.0758   695.4379    205.356  1292.1034        0.0  7270.6882        0.0 
      13.0        0.0  11579.672  2928.4133  2726.3354   822.0731 13637.5212 17174.0877   123.5013   923.2986 21472.5055   130.7498   541.2262  3464.8529    4217.74   435.8857  3959.9823  1670.0573   623.5025 13575.1001  4500.5522   869.3557   290.0145  4238.1832   1530.815   446.6872   168.0808   821.5324   131.0274  6701.4192        0.0 
      14.0        0.0 18610.1391   3306.875  3385.7843   961.4876  23246.342 27518.3254   332.2387  3757.8798  28732.165   501.6589  2221.8326  3884.0377  7246.3356  1238.2545  6422.4418  5032.7157  1033.2694 20761.3438   5517.024   2438.559  1756.4513  6311.3757  2857.3801   838.3842   836.1798  1170.3506  1437.3602  8383.2092        0.0 
      15.0        0.0 17862.0953   3240.703  3361.5572   977.2678 18549.2294 22785.6047   242.3882  1688.9576 29799.2199   247.2098   883.1748  5000.1899  6026.8507   731.9524  6008.4664  2983.9502  1243.0245 20555.2699  6373.8494  1043.0608    624.984   6371.779  2346.1547   610.3651    389.595  1464.7494   548.5993  7900.1038        0.0 
      16.0   599.2899 14110.4623  1600.3167  3397.5207   738.1419 17220.9411 19273.6189   114.2838  2855.4833  21189.468   430.7173  1668.9428  3258.2445  5448.3382  1140.4416  4779.7902  3868.6329   862.7012 15572.5905   4567.099  1823.1908   1372.094  3327.5711  2332.6646   604.1143   719.8169    602.461   389.2649  7051.3252        0.0 
      17.0      200.0 19998.1525  2280.3133  4350.9436   869.6485 21602.3065 27775.4997   326.4343  3448.7942 26906.3867   486.3096  2266.3771  4198.0815  7101.7297  1435.2252    6065.94   4572.372  1210.9235 21011.0398  5927.5812  2718.7411  1664.2773  4220.4269  2906.8521   740.1211   998.8257  1304.2115   522.1765  7240.9842        0.0 
      18.0      200.0 17450.6644  2670.5159  4040.3758   808.2463 19738.4091 23761.1483   231.3378   3455.193  24136.191   507.6277  2120.7013  3852.2135  6346.5214  1391.0943  5593.0007  4377.8469  1432.0035 19004.3196  5370.2256    2239.63  1529.3262  3947.4711  2827.7677   634.4759  1114.1308  1207.4794   748.9073  7278.7711        0.0 
      19.0      200.0 12852.9556  1882.0461  3040.3071    568.578 13997.2579 15895.9401   286.3824  2862.7497  16838.861   371.2095  1793.4356  2743.0148  4557.0671   1101.697  3807.1638  3485.5037   815.4827 13534.7882  3885.4222  2220.2155  1303.3472  2133.7764  2188.2046   452.8723    941.694   828.7935   537.1107  6622.6857        0.0 
      20.0   516.9135 19118.4144  2299.3167  4044.7056   915.9851 18014.6778 20909.3718   648.1293  3839.8345 21372.4935   571.6322  2693.8509  3549.1059  6058.5211  1625.5406  5112.1406  4603.5458  1490.2222 18211.3344   4985.684  2432.6227  1479.0374      300.0  2715.4541     606.13  1598.0738  1157.5584  1119.7228   6735.919        0.0 
      21.0        0.0 20706.2075  2711.6656  3900.0736   1123.132 19645.4895 23103.3466  1111.8132   3359.753 22642.4128    546.556  2377.4101  3687.7145  6742.6823  1654.9127  5154.3852  4344.0537  1848.4611 19829.0934  5483.2645  1401.1463   947.2577   221.1693  2940.0566   569.8908  1526.0992  1296.4968  1602.6212  6479.7724        0.0 
      22.0        0.0 18969.8896  2278.3447  3851.0913  1131.1918 17378.7714 19890.8903   966.2068  3590.5285 19416.5581   592.9358  2515.5383  3360.7968  5967.3024  1635.7708  4649.8596  3998.2455  1641.7251  17641.756  4457.2825  2038.9568  1020.9881   355.9977  2546.8293   511.1741  1541.3269  1034.5743  1078.1139  6821.0557        0.0 
      23.0        0.0  9362.0236  1067.2903  1965.3601   174.5504   8232.372  9052.9676   186.3054  1669.7158  9326.2954        0.0  1107.9441  1798.0833  2841.3307    678.386  2241.0794  1768.5431   507.1411  8808.9598  2790.6393  1583.4925   503.6001        0.0  1627.8491   151.5827   678.2992   486.3017   258.6276  4598.9643        0.0 
      24.0        0.0 20946.4214  2281.2866  4262.5152  1217.6002 18005.1149 22627.5758  1244.3137  3269.3707 19524.1728   499.5453  2564.9707  3326.1404  6417.9357  1388.1003  4717.5702  2995.1536   994.9018 18662.6036  4712.0054   3365.698   761.4625   532.9227   2591.469   474.7399  1506.5435  1241.9501  1834.2053  3859.1069        0.0 
      25.0        0.0 22260.0581  2414.2865  4100.3936  1531.7792 18951.9981 21746.9078  1143.6045  3604.3012 19427.8795   529.1779  2647.9438  3770.9729  6624.5495  1459.0817  4498.3004  3528.9926  1541.5978 19226.2895   4906.238   2088.198   691.8479   697.5202  2920.0794   506.3465  1580.9351  1224.9716  2155.9346  5762.0633        0.0 
      26.0        0.0 21743.2554  2110.9923  4059.0958  1481.0196 17906.0437 20240.9802  1438.0516  3462.3932 18169.6529   564.7598  2607.9247  3570.8658  6363.1798  1489.2227  4438.2314  3569.7921  1878.2496 18307.9033  4996.8653  1301.4491   666.6143   786.1599  2842.0122    436.779   1536.583  1184.2923  2051.5022  6070.9765        0.0 
      27.0   477.4546 21104.3998  1110.6654  4068.4002  1398.5826 17847.5843 18950.9408  1045.8417  3285.5785 16951.9793   467.6942   2379.338  3457.0529  5964.3287  1213.5373  4165.1121  3468.1196  1920.1169 17544.5014  4507.6776   448.1917        0.0   1108.183  2575.6643   415.3442  1352.8326  1116.3838  2016.3142  6446.6489        0.0 
      28.0        0.0 17949.8417  1507.6764   3934.837   1378.576 14742.9133 17285.0963  1273.2721  3237.6813 13823.6362   571.3019  2231.9504  2779.2708  5258.8533   987.2997  3738.3466  2552.4421  1629.2679 14753.6904  3912.6752   1191.697        0.0  1079.8113  2209.7708   432.5723   1300.448  1250.6765  1144.2401  3559.0816        0.0 
      29.0    36.7343 25183.9181  2242.9389  4096.3403  1865.8014 19851.7232 22862.4249  1280.0749  2681.2277 18341.2913   486.5003  2243.8086  3643.2727  6695.3146  1116.4872  4455.7585  2424.0067  1936.6372 19926.0754  5091.2449   1397.285        0.0  1120.2683  2777.0994   447.5424  1185.8151  1364.4948  3288.9958  4564.2101        0.0 
      30.0   693.2995 21068.1448  2032.8946  3882.3716  1772.1948 16377.3215 18723.7128  1235.3357  2366.1593 14889.9047        0.0  1989.5245  2950.5022  5509.2254   982.4211  3931.1286  2238.4749  1661.6004 15635.2649  4447.9959  1130.3757        0.0   1462.636  2119.7621    321.914  1007.1781  1216.5335  1976.7823  3678.0127        0.0 
      31.0   540.6036  23228.784  2268.6109  3695.3846  1660.5746 17380.9971 18533.4052   1142.183  2258.9287  15655.057        0.0  2004.9963  3051.9537  5732.7025   1074.167  4067.5188  2166.9027  1705.7014 16194.1347    4855.43   1107.053        0.0  1577.8604  2300.1088   368.2913   874.8305  1244.9624  2068.6221   4473.053        0.0 
      32.0   514.2233 23653.4417   2207.249   3684.707  1679.4573 17511.8388 18136.8294   867.4165  1925.8083 15112.3015        0.0  1993.6482  3258.1846  5731.1841  1046.3776  4107.0711  1894.3987   1823.482 16380.4294   5104.092   979.3335        0.0  1666.3723  2373.2187   383.5865   781.8983  1334.3664  2373.7997  5003.4568        0.0 
      33.0   451.1685 22696.8034  2294.5114  3764.9356  1659.7837 16807.3508 17852.5078    791.334   1828.264 14309.1395        0.0  1983.0347  2919.1837  5442.8956   965.1123  3944.8824  1821.0195  1806.8257 16104.1562  4688.6806   650.3893        0.0   1639.831  2303.6529   314.7611   565.0649  1411.4382  2241.9583   4081.817        0.0 
      34.0   649.1934 23209.3238  2168.9852  3759.3816  1643.0647 16612.8044  17617.593   459.5169  1450.2721  14178.047        0.0   1960.431  2905.5685  5167.1998   891.7381   3908.514  1786.5481  2010.9363 15520.2032  4736.4035   325.4286        0.0  1596.1355  2306.8732   261.5493   601.9188  1424.0076  2383.3842  3822.5886        0.0 
      35.0   752.7002 24050.9389  2348.0435  3709.4896  1857.2059 16941.1026  17386.984   485.0798   1539.306 14477.3292        0.0  1917.0517  2855.9319  5443.9717  1000.7621  3977.6523  1862.5962  1579.3057 15805.6737  4813.8005   602.5081        0.0  1986.1634  2407.3865   401.4581   596.3262  1520.4235  2375.8751  3969.4554        0.0 
      36.0   815.8514 23865.5805  2203.1557  3869.7738  1810.0866 16759.9235 17276.2483   472.0988   1266.167 13689.0876        0.0  1882.7147  2580.2277  5111.3308   876.0953  3700.5786  1811.1697  1706.1922 15391.9177  4503.1912    298.439        0.0  1979.0057  2151.5274   291.1412   511.3198  1159.7085   2257.113  3913.3302        0.0 
      37.0   602.8983 25508.8529  2140.6978  4098.0176  1669.5536  18348.901 17285.4484   449.0608   982.0596 15264.6658        0.0  1966.5329  2648.0839  5615.2219    778.934  3963.5219  1612.6073  1765.7872 16819.9406  5135.2159   283.7475        0.0  2054.6935  2321.3555   357.8622   449.6767  1409.8418  2382.9638  5286.6376        0.0 
      38.0   685.6861 23770.0379   1684.919  3866.1172  1604.5423 16081.0267   16847.98   246.6684   832.1286 13288.7928        0.0  1939.6807   2807.615   4792.553   625.1008  3591.9196  1532.4286  1660.2227 15077.4029  4514.8816        0.0        0.0  2083.5377  2004.9503   297.8081    313.311   965.2055  2501.5042  2614.7912        0.0 
      39.0   506.2121 24125.2262  1939.7038  3861.7796  1741.3179 16476.6716 16545.2305   261.8138   796.9163  13305.951        0.0  2027.6994  2582.0908  4991.2914   695.4637  3658.1167   1318.175  1726.2286 14975.1473  4800.8326        0.0        0.0  2091.6066  2115.2681   251.9544   515.4513  1431.9346  2448.8788  3767.9633        0.0 
      40.0   783.4343  22984.148   1289.591  4175.5897  1576.1884 15482.7117 15808.7747     96.209   834.4863 12359.7907        0.0  1833.7353  2273.3163  4554.6339   365.7784  3392.9595  1009.1145  1827.6256 13794.7618  4441.8965        0.0        0.0   2058.185  2075.4752   177.1294   172.7153  1308.0431  2458.3691  2574.7896        0.0 
      41.0   639.8674 22775.0975  1402.6237  4312.9896  1547.6599 15058.8145 15857.3707    152.964   717.2055 12064.0621        0.0  1872.1938  2218.8723  4398.7254   233.1353  3339.8649  1154.5376  1817.0465 13400.2848  4496.6011        0.0        0.0  2021.2292  1872.1753   223.5974   225.4065  1312.4893  2564.0348  2171.5302        0.0 
      42.0    515.488  21967.497  1178.4446  3865.5171  1564.1153 14576.7243 15281.7236     58.571   792.9479 11325.3824        0.0  1767.0981  1952.6542  3933.4802   100.1382  3060.3362   860.7826  1787.9069  12818.123  4085.6776        0.0        0.0  1985.0545  1942.3529   176.1796   157.5626  1759.3888  2548.3583  1584.4903        0.0 
      43.0    592.218  23479.276   1407.559   3871.534  1930.9458  15091.031 15448.4236     5.0215    652.385 11900.6614        0.0  1817.0995  2063.3238  4227.8155   363.5636  3214.9321   913.1442  1835.1728 13196.9133  4173.7482        0.0        0.0   2015.716  2018.2869   222.2236    171.763  1427.4217  2740.5499  2646.5406        0.0 
      44.0   427.8401 22871.6739  1300.5221  3901.7156  1645.8572 15164.1771 14944.6722        0.0   491.4939 11454.1658        0.0  1710.3775  2083.7691  4251.2867   422.8322  3121.6893  1020.5621  1771.2255 13029.2634  4264.5059        0.0        0.0  2026.7252  2019.3518   112.7979   187.7719  1535.9289  2778.7164  2248.8896        0.0 
