LIST170427A-t15076-5K-35Deg.txt**Raman_Information**
Laser 633 nm
Power 10 perc
Grating 2400 cm-1
Objectif 100 x
Time 60 s
N._Acqu. 30 x
**Sample_Information**
Sample_ID t15076
Sample NdNiO3
Substr NdGaO3
Sam._Inf. 30nm
Sub._Inf. 111
Dist           0.0      1.0      2.0      3.0      4.0      5.0      6.0      7.0      8.0      9.0     10.0     11.0     12.0     13.0     14.0     15.0     16.0     17.0     18.0     19.0     20.0     21.0     22.0     23.0     24.0     25.0     26.0     27.0     28.0     29.0 
     0.0 294.8243 145.6091 154.8087 170.5495  183.347 206.4413 219.9916    242.2 259.3285 296.0986 485.5572 305.0861 342.4927 353.9385 322.5858 411.4445 430.7252  452.192 464.5955 472.1883 445.4249 395.9087 147.5953 363.6839 548.2528    377.4 334.4186    168.0 218.0445   67.157 
     1.0 294.5584 145.8062 154.7753 170.5034 182.8592 206.4716 219.9301    242.2 259.4414  296.107 485.5572 304.9527 342.5267 353.9944 323.6349 411.5276 430.9773 452.3206 464.5791 472.1487 446.7283 396.5203 147.5912 363.5934 548.2528    377.4 334.4729    168.0 217.9402   67.157 
     2.0 294.9674 145.9089 154.8558 170.4966  183.109 206.4634 220.0809    242.2 259.1514 295.8038 485.5572 306.0097 342.4559 353.9862  323.554 411.4599  429.784 452.2938  464.612   472.18 444.0033  395.771 147.6567  363.657 548.2528    377.4 334.3743    168.0 217.9859      0.0 
     3.0 294.7802 145.9467 154.7007 170.4769 183.0223 206.4219 219.9982    242.2 259.0597 295.8121 485.5572 304.9686  342.503  354.109 323.6572 411.4958 430.9959 452.1356 464.5904 472.1589 448.8261 396.3409 147.6308 363.6888 548.2528    377.4 334.3101    168.0 217.9412   67.157 
     4.0 294.6589 145.9324 154.8691 170.5395 183.2519 206.2935  219.903    242.2 258.6787 295.6897 485.5572 305.0959 342.4838 354.1066 323.2718 411.4474  429.629 452.3941 464.6104 472.2883 447.2565 394.2089 147.6673 363.7436 548.2528    377.4 334.1909    168.0 218.0626   67.157 
     5.0 294.5363 145.9149 154.9013 170.5431 183.1165 206.0964 219.7894    242.2 258.7402 295.6292 485.5572 305.4547 342.4772 354.2345 322.3656  411.344 429.5533 452.3967 464.5293 472.2307  448.227 395.5304 147.6593  363.855 548.2528    377.4 334.1164    168.0 218.0566   67.157 
     6.0 294.0526 145.5744 155.3683 170.5573 183.3137 205.9924 219.8032    242.2 258.4866 295.4921 485.5572 305.0679 342.5175 354.2543 323.2375 411.2038 430.6509 452.0314 464.5006 472.2012 449.3177 395.7365 147.5813 364.0016 548.2528    377.4 334.0023    168.0 218.0737   67.157 
     7.0 294.4911 145.5647 155.3846 170.4355  183.033 205.9111 219.9415    242.2 258.5774 295.5628 485.5572 304.7765 342.4702 354.3015 321.2318 411.2316 429.0478 452.1368 464.5091 472.2698 448.2997    397.0 147.5704 363.9184 548.2528    377.4 333.8409    168.0 218.3155   67.157 
     8.0 294.5488 145.9231  154.873 170.6094 182.7747 205.6066 219.5216    242.2  258.438 295.6025 485.5572 304.3855 342.3701 354.3387 323.1444 411.1794 430.2722 452.0258 464.4815 472.2899 449.8236 397.0115 147.7616 363.9767 548.2528    377.4 333.6674    168.0 217.6243   67.157 
     9.0   294.95  145.612  154.664 170.3111  182.842 205.0159 219.1897    242.2 257.9984 294.5136 485.5572 303.8828 341.8865 354.0277 325.3948 410.5159 431.6093 451.7614 464.0406  472.057 448.2947 395.6598 147.4006 363.7582 548.2528    377.4 334.8983    168.0 217.8433   67.157 
    10.0 295.2893  145.814 154.8182 170.4743 182.9364 205.3573 219.1573    242.2 258.3797 294.2265 485.5572 305.4681 342.2592 354.3583  322.061 410.9776 430.5633 452.1645 464.3568  472.276 447.9864 394.6239 147.5297 364.2289 548.2528    377.4  333.329    168.0 217.2447   67.157 
    11.0    155.0  145.814  154.772  170.586 183.3451 205.1952 219.1871    242.2 258.2892 294.9553 485.5572 305.1792 342.2407 354.3662 325.8903 410.9753 430.8067 451.4315 464.3434 472.3204 442.4789 392.7004 147.4329 364.1156 548.2528 378.3149 333.4301    168.0 217.2801   67.157 
    12.0    155.0 145.8113 154.6914 170.5886 183.3878 205.1829 219.1774    242.2 258.1937  294.961 485.5572 305.0671 342.2386 354.3665 324.4234 410.9834 431.0742 451.6788 464.3243 472.3042 446.6978 393.7578  147.438  364.132 548.2528 378.0926 333.4364    168.0 217.2046   67.157 
    13.0    155.0 145.8481 154.6783 170.6906 183.3838 205.0578 219.2195    242.2 257.9638 294.9021 485.5572 304.9371 342.2021 354.4475 322.5726 410.7679    431.0 452.3433 464.3058 472.2142 450.6868 391.6626 147.5525 364.2789 548.2528    377.4 333.0393    168.0 217.4202   67.157 
    14.0    155.0  145.502 154.5516 170.4545 183.2392 204.3888 218.7427    242.0   257.45  294.233 485.5572 303.7251 341.6407 354.0197 322.0676 410.1161 431.4655 451.1968 463.8652 471.9957    448.0 393.5451 147.2181    363.9 548.2528    377.0 331.9656 169.4515 217.2138   67.157 
    15.0    155.0  145.844  154.702 170.6877 183.2442 204.7373 219.0801    242.0  257.833 294.6689 485.5572  305.262 342.0896 354.3697 321.4907 410.5972 430.7892 451.8114  464.227 472.4037    448.0 393.5451  147.552    363.9 548.2528    377.0 332.7906 169.0014 217.2263   67.157 
    16.0    155.0 145.4717 154.0738 170.4013  182.825 204.0844 218.6407    242.0 256.9599 294.1508 485.5572 303.3705 341.4228 354.0354 323.1995 409.9736 431.3812 451.1403 463.7634 471.9448 448.4477 393.5451 147.3195   363.85 548.2528    376.8 333.0605    168.0    217.2   67.157 
    17.0    155.0 145.4285 154.0365 170.3716 182.8835 203.7858 218.3873    242.0 256.9063 293.9257 485.5572 303.2169 341.3959 353.9936 321.0922 409.7557 430.6748 451.6027 463.6544 471.9808 447.4298 393.5451 147.3397    363.8 548.2528    376.6 331.7741    168.0 216.4855   67.157 
    18.0    155.0 145.3354 153.9035 170.3413 183.7466 203.5095 218.2938    241.9 256.4459 293.6667 485.5572 302.8914 341.1541 353.8324 321.0922 409.5142 430.4159 451.0682 463.4794 471.7308    446.0 393.5451 146.9247   363.75 548.2528    376.4 331.9967    168.0 216.2378   67.157 
    19.0    155.0 145.3596 153.8162 170.3164 183.8158 203.2488 218.2019    241.8 256.3787 293.5468 485.5572 303.0554 341.0373 353.8241 321.0922 409.2258  429.393 450.9545 463.4833 471.8288    445.8 393.5451 147.0446    363.7 548.2528    376.2 331.7891    168.0 216.1124   67.157 
    20.0    155.0 145.3755 153.8714 170.3582 184.9766 202.8838 217.8135 239.6129 255.8731 293.2492 485.5572 302.1893 340.8277 353.6945 321.0922 408.8572 429.8399 450.6545 463.2845 471.7069    445.6 393.5451    139.1   363.65 548.2528    376.0 331.6107    168.0 215.7926   67.157 
    21.0    155.0 145.2917 153.8716 170.2734  183.807 202.6744 217.6049 239.6281 255.0705 293.0294 485.5572 301.8009 340.5721 353.3906 320.6635 408.8795 430.8394 450.5722  463.211 471.6729    445.2 393.5451    139.0    363.6 548.2528    375.8 332.3774    168.0 215.4192   67.157 
    22.0    155.0 145.2373 153.6717 170.2162  184.795 202.3944 217.4421  237.158 254.1792 292.8052 485.5572 301.0066 340.3981 353.4443 321.1898 408.4243    429.0 450.3593 463.0014 471.4405 443.8407 393.5451    138.5   363.55 548.2528    375.6 331.5609    168.0 214.9818   67.157 
    23.0    155.0 145.1699 153.3689    170.0    186.0 202.2547 217.3192    236.0 253.2968 292.5234 485.5572    300.0 339.8989 352.9536 319.6317 408.1868 427.4563  450.596 462.8328 471.4442    444.8 393.5451    138.5    363.5 548.2528    375.4 331.0967    168.0 214.7967   67.157 
    24.0    155.0 145.0539 153.2837 170.2393 187.4767 201.8497 216.8905 235.3564 252.6455  292.283 485.5572    299.5 339.6375 352.7372 320.7912 408.0146 427.4396  450.355  462.789 471.5061    444.5 393.5451 133.9789   363.45 548.2528    375.2  331.568    168.0 213.9631   67.157 
    25.0    155.0 144.9877 153.3166 170.0871 185.2048 201.6301 216.7744 233.9761 251.8705 292.0624 485.5572 299.0839 339.4873 352.7182 321.0699 407.4848 428.6926 450.1334 462.6379 471.2634    444.1 393.5451 137.5512    363.4 548.2528    375.0 331.4883    168.0  213.702   67.157 
    26.0    155.0 144.9332 153.2137 170.1363 185.7016 201.4263 216.6461 233.4661 251.1873  291.808 485.5572 299.3806 339.3206 352.5067 320.6909 407.3156  429.445 449.5005 462.4647 471.2377 443.5028 393.5451 142.6165   363.35 548.2528 374.2274 331.5905 168.1406 213.4563   67.157 
    27.0    155.0 144.8808    152.2 170.0037 185.2637 201.2227    216.5 233.4859 249.7957 291.6155 484.3689 298.4502 338.9967 352.1215 321.1197 406.6691 431.3995  449.238 462.3396 471.0989    443.0 393.5451    137.0    363.3 548.2528    374.0 331.1002    167.8 213.3084   67.157 
    28.0    155.0 144.7955 152.8433 169.9184 186.4856  200.935 216.1119 231.8549 249.2251 291.3493 485.5572 298.6405 339.0638 351.9988 320.2701 406.5103 428.9271 449.4397 462.2325 471.1714 441.2601 393.5451 145.4223   363.25 548.2528    373.9 331.3591    168.0 212.3597   67.157 
    29.0 153.9599 144.6797 153.2423  169.911 185.3991 200.7961 215.8768 232.6011 248.6648 291.0249 485.5572    298.4 338.6201  351.585 321.2408  406.009 428.2312 449.3134 462.0859 471.1088 442.4362 393.5451 137.3496 363.1549 548.2528    373.7 331.6823 168.1726  212.449   67.157 
    30.0 137.0024 144.6091 153.0049 169.9251 185.4958 200.5486 215.6891 232.3169 248.2492 290.7474 485.5572 298.2471  338.278 351.5945 319.2946 405.5207 428.6352 449.1436 461.7886 470.3663 441.3054 393.5451 164.4562   363.05 548.2528    373.5 331.5336   167.96 212.1019   67.157 
    31.0 157.9615   144.51  152.454 169.9497 185.9758  200.355 215.4435 231.2102 247.6951 290.5443 485.5572 298.1482  338.091 351.2513 319.3509 405.3627 427.8765 448.5449 461.6449 470.0821 441.3054 393.5451    165.2  363.441 548.2528    373.5 331.3649 168.1123 212.7509   67.157 
    32.0 158.6503 144.3975 152.4985 169.7716 186.7799 200.1757 215.3265 230.4274 247.8851 290.2133 485.5572 298.1326 337.8194 350.9418 318.7975 405.2477 428.7478 448.2755 461.4287 469.7449 441.3054 393.5451 165.4369 363.0415 548.2528    373.5  331.238 168.0646 212.1731   67.157 
    33.0 158.6778 144.3425 152.4831 169.7387 186.1748 199.9487 215.0284  227.109  246.557 289.9145 485.5572  298.529 337.6364  350.857 318.8803 404.7287 429.5058 448.4951 461.3323 469.8022 441.3054 393.5451 165.2667 363.2996 548.2528    373.5 331.4586  167.918  211.642   67.157 
    34.0 158.9755 144.2407  152.354 169.6307 187.1458 199.7519  214.809 230.6215  247.634 289.6463 485.5572  299.561  337.957 350.7514 317.9455 404.3312 428.9125 448.3879 461.1869 469.4895 441.0884 393.5451 165.2253 362.7654 548.2528    373.5 331.5719 167.9266  211.457   67.157 
    35.0 157.4971 144.1246 151.9509 169.4584 185.7803 199.5044 214.5308 230.9035 246.8721 289.4871 485.5572 300.9719 337.3046 350.2299 319.0946 403.8953 429.5366 448.5689 461.0107  469.417 441.2539 393.5451 164.8736 362.8612 548.2528    373.5 331.4271 168.1098  211.475   67.157 
    36.0 157.1052 144.0342 151.7772 169.3995 186.7217 199.3647  214.447  229.109 249.2281 289.1288 485.5572 299.9018 336.8842 349.9682 318.9998 403.1561 428.6716 447.7658 460.8847 468.9887 441.0298 393.5451  164.907   362.75 548.2528    373.5 331.3256 167.9503 210.3591   67.157 
    37.0 158.5983  143.961 151.5856    169.2 187.5245 199.2341 214.1938 230.2117 250.3643 288.9258 485.5572 302.6106 336.7639 349.6694 324.1831 403.1415 429.5222 447.6584 460.7106 468.7148 441.6521 393.5451 165.4381 362.6207 548.2528    373.5 331.3568 167.8882 211.0523   67.157 
    38.0 156.0996 143.8721  151.463 169.3488 187.7534 199.0639 213.7627 227.9375 252.1319 288.6487 485.5572  300.725 336.7752 350.2434 321.0118 402.4048 430.3751  447.589 460.6062 468.8745 441.3054 393.5451 164.7743 363.2381 548.2528 373.3725 331.6332 167.6415 210.1346   67.157 
    39.0 157.6863 143.8076 151.3669 169.1244 188.6514 198.8141 213.6724 224.5979  252.627 288.4349 485.5572 300.9674  336.717 349.6163 320.1166 402.5355 429.9902 447.0539 460.4363 468.2171 441.3054 393.5451 165.2303 362.3329 548.2528 373.7905 331.6244 167.4117 209.6516   67.157 
    40.0 155.9621 143.7662 151.1155 169.1856 187.9441 198.8033  213.294    223.5 254.3787  288.152 485.5572 302.6569 335.8633 349.4678  323.337 402.3121    430.2  448.787 460.3258   468.36 441.3054 393.5451 164.8039 362.5883 548.2528 374.5939 332.0119 167.2149 209.0378      0.0 
    41.0 156.0634 143.6765 150.8013 169.0781  188.765 198.5009 212.9209 223.9369 253.9604 287.8546 485.5572  301.555  335.666 349.2206 320.1952 401.6618 429.3591 449.3565 460.2428 468.2772 441.3054 393.5451 164.2593 362.3047 548.2528 374.4559 331.8285 166.9523  208.782      0.0 
    42.0 156.9625 143.5994 151.1255  168.958 188.2985 198.4759 212.7318 223.9369 254.1825    287.5 485.5572 301.7699 336.8495 349.1644 322.1698 401.2151  428.222 449.3394 460.0324 468.2266 441.3054 393.5451 164.2363 361.7529 548.2528 376.9754 331.3483 166.9837  208.109   67.157 
    43.0 156.0022 143.5157 150.7209 168.7152 189.5221  198.296  212.639 223.9369 253.8454 287.2981 485.5572 301.2058 335.7305 348.3628 322.1698 400.8305 428.3301 450.0405 459.9573 467.9845 441.3054 393.5451 164.3129 361.8617 548.2528  377.425 330.9874 166.9376 207.9742   67.157 
    44.0  155.918 143.4304  150.881 168.7002 188.3171 198.0061 212.2087 223.1274 254.6866 287.1306 485.5572 301.1255 336.2235 348.4841 322.1698 400.1342 429.7852 449.7272 459.7922 468.0893 441.3054 393.5451 163.7614 362.0525 548.2528 374.0797 331.1386 166.5208 207.5181   67.157 
